Energy (eV)    DOS (1/eV)    PDOS (1/eV)  of atom type Mo S  
 
     -2.56823    142.50380     43.60413     98.89967
     -2.55823    138.06081     42.55730     95.50351
     -2.54823    134.46235     41.73748     92.72487
     -2.53823    131.78207     41.25318     90.52889
     -2.52823    129.91641     41.08806     88.82836
     -2.51823    128.53696     41.08506     87.45190
     -2.50823    127.11823     40.99268     86.12555
     -2.49823    125.29494     40.63076     84.66418
     -2.48823    123.36140     40.09016     83.27124
     -2.47823    122.16926     39.70323     82.46603
     -2.46823    122.24471     39.73605     82.50867
     -2.45823    123.18588     40.16158     83.02430
     -2.44823    124.15338     40.77214     83.38123
     -2.43823    124.66572     41.38878     83.27694
     -2.42823    124.64085     41.87401     82.76684
     -2.41823    124.02901     42.08073     81.94829
     -2.40823    122.88045     41.96029     80.92016
     -2.39823    121.62605     41.68718     79.93887
     -2.38823    120.86154     41.55304     79.30850
     -2.37823    120.80588     41.72490     79.08098
     -2.36823    121.20998     42.16273     79.04725
     -2.35823    121.88084     42.76898     79.11186
     -2.34823    123.16683     43.57333     79.59350
     -2.33823    125.77909     44.75721     81.02188
     -2.32823    130.06914     46.50094     83.56821
     -2.31823    135.54179     48.80439     86.73740
     -2.30823    141.18286     51.45416     89.72871
     -2.29823    146.16139     54.11660     92.04479
     -2.28823    149.94736     56.36566     93.58169
     -2.27823    151.84060     57.64484     94.19575
     -2.26823    150.97526     57.43519     93.54008
     -2.25823    147.15578     55.65451     91.50127
     -2.24823    141.35773     52.82131     88.53642
     -2.23823    135.01076     49.68715     85.32361
     -2.22823    129.01121     46.75624     82.25497
     -2.21823    123.80098     44.24312     79.55786
     -2.20823    120.08567     42.33874     77.74693
     -2.19823    118.63430     41.22616     77.40814
     -2.18823    119.01241     40.74979     78.26261
     -2.17823    119.09416     40.27965     78.81452
     -2.16823    116.61990     39.14463     77.47527
     -2.15823    111.36955     37.23892     74.13063
     -2.14823    105.44004     35.11089     70.32915
     -2.13823    101.18805     33.40594     67.78211
     -2.12823     99.03017     32.25240     66.77778
     -2.11823     97.48042     31.27062     66.20980
     -2.10823     95.33311     30.20341     65.12970
     -2.09823     93.37232     29.38232     63.98999
     -2.08823     93.46942     29.37734     64.09209
     -2.07823     96.09675     30.20195     65.89480
     -2.06823     99.21948     31.04935     68.17013
     -2.05823     99.89281     30.92648     68.96634
     -2.04823     96.87806     29.52670     67.35136
     -2.03823     91.63757     27.45798     64.17959
     -2.02823     86.93099     25.68972     61.24127
     -2.01823     84.61757     24.83245     59.78513
     -2.00823     84.59688     24.81867     59.77820
     -1.99823     85.36870     25.07753     60.29117
     -1.98823     85.48756     25.02909     60.45847
     -1.97823     84.76507     24.56188     60.20319
     -1.96823     84.22254     24.06675     60.15580
     -1.95823     84.83846     23.96365     60.87482
     -1.94823     86.34349     24.20893     62.13455
     -1.93823     87.30224     24.30370     62.99854
     -1.92823     86.47234     23.80605     62.66628
     -1.91823     84.07877     22.81028     61.26849
     -1.90823     81.60078     21.85411     59.74667
     -1.89823     80.32762     21.36414     58.96348
     -1.88823     80.34270     21.28914     59.05356
     -1.87823     80.87628     21.28387     59.59241
     -1.86823     81.31555     21.13667     60.17887
     -1.85823     81.72694     20.94176     60.78517
     -1.84823     82.55733     20.89741     61.65991
     -1.83823     83.96682     21.02412     62.94270
     -1.82823     85.45752     21.12040     64.33712
     -1.81823     86.22489     20.97448     65.25041
     -1.80823     85.98901     20.58318     65.40583
     -1.79823     85.41449     20.15507     65.25942
     -1.78823     85.61590     19.94484     65.67106
     -1.77823     87.43259     20.15263     67.27996
     -1.76823     91.42128     21.00174     70.41954
     -1.75823     98.34755     22.83990     75.50764
     -1.74823    108.96661     25.98916     82.97746
     -1.73823    122.59535     30.27638     92.31897
     -1.72823    135.90526     34.65947    101.24580
     -1.71823    144.02204     37.55995    106.46209
     -1.70823    143.66510     37.84385    105.82125
     -1.69823    135.21965     35.51791     99.70175
     -1.68823    121.58188     31.45794     90.12394
     -1.67823    105.47099     26.63124     78.83976
     -1.66823     88.31399     21.69293     66.62106
     -1.65823     71.19085     17.10438     54.08648
     -1.64823     55.75261     13.27835     42.47425
     -1.63823     43.68237     10.47214     33.21023
     -1.62823     35.56713      8.64151     26.92562
     -1.61823     30.71063      7.50952     23.20111
     -1.60823     27.96266      6.78125     21.18141
     -1.59823     26.45761      6.27402     20.18359
     -1.58823     25.67928      5.89521     19.78407
     -1.57823     25.22525      5.57654     19.64872
     -1.56823     24.69827      5.25017     19.44810
     -1.55823     23.75470      4.85999     18.89471
     -1.54823     22.19099      4.37828     17.81271
     -1.53823     19.95135      3.80623     16.14512
     -1.52823     17.04063      3.15548     13.88514
     -1.51823     13.52077      2.44277     11.07800
     -1.50823      9.67256      1.71465      7.95790
     -1.49823      6.05347      1.05821      4.99527
     -1.48823      3.23312      0.55949      2.67363
     -1.47823      1.44734      0.24861      1.19873
     -1.46823      0.53642      0.09164      0.44479
     -1.45823      0.16324      0.02777      0.13547
     -1.44823      0.04056      0.00688      0.03368
     -1.43823      0.00819      0.00139      0.00681
     -1.42823      0.00134      0.00023      0.00112
     -1.41823      0.00018      0.00003      0.00015
     -1.40823      0.00002      0.00000      0.00002
     -1.39823      0.00000      0.00000      0.00000
     -1.38823      0.00000      0.00000      0.00000
     -1.37823      0.00000      0.00000      0.00000
     -1.36823      0.00000      0.00000      0.00000
     -1.35823      0.00003      0.00002      0.00001
     -1.34823      0.00026      0.00019      0.00007
     -1.33823      0.00200      0.00146      0.00054
     -1.32823      0.01221      0.00892      0.00329
     -1.31823      0.06067      0.04432      0.01635
     -1.30823      0.24578      0.17943      0.06635
     -1.29823      0.81538      0.59483      0.22055
     -1.28823      2.22879      1.62435      0.60445
     -1.27823      5.06130      3.68401      1.37729
     -1.26823      9.65675      7.01731      2.63944
     -1.25823     15.71982     11.39849      4.32133
     -1.24823     22.28425     16.11325      6.17100
     -1.23823     28.22837     20.33967      7.88870
     -1.22823     32.91086     23.61390      9.29696
     -1.21823     36.36723     25.97066     10.39657
     -1.20823     39.02531     27.73093     11.29439
     -1.19823     41.32628     29.22253     12.10374
     -1.18823     43.53986     30.64548     12.89438
     -1.17823     45.78008     32.08441     13.69566
     -1.16823     48.09269     33.57305     14.51963
     -1.15823     50.51274     35.13628     15.37646
     -1.14823     53.08083     36.80202     16.27881
     -1.13823     55.83680     38.59743     17.23937
     -1.12823     58.80128     40.53646     18.26482
     -1.11823     61.98059     42.62298     19.35761
     -1.10823     65.39740     44.87208     20.52532
     -1.09823     69.10280     47.31840     21.78440
     -1.08823     73.17662     50.01544     23.16118
     -1.07823     77.74195     53.04509     24.69686
     -1.06823     82.97124     56.52229     26.44896
     -1.05823     89.04740     60.57206     28.47534
     -1.04823     96.06574     65.27164     30.79410
     -1.03823    103.93834     70.59500     33.34334
     -1.02823    112.40453     76.41715     35.98738
     -1.01823    121.09008     82.52698     38.56310
     -1.00823    129.38384     88.49785     40.88598
     -0.99823    136.14178     93.45855     42.68323
     -0.98823    139.75848     96.17351     43.58497
     -0.97823    139.02819     95.71366     43.31452
     -0.96823    134.16588     92.22062     41.94526
     -0.95823    126.85185     86.92644     39.92541
     -0.94823    119.17801     81.36389     37.81412
     -0.93823    112.52387     76.54221     35.98165
     -0.92823    107.23488     72.72103     34.51384
     -0.91823    103.04151     69.71359     33.32791
     -0.90823     99.60794     67.27350     32.33444
     -0.89823     96.75450     65.25709     31.49741
     -0.88823     94.36014     63.56982     30.79033
     -0.87823     92.25145     62.09438     30.15707
     -0.86823     90.28232     60.73531     29.54701
     -0.85823     88.44686     59.48455     28.96231
     -0.84823     86.80043     58.36831     28.43212
     -0.83823     85.32396     57.36757     27.95639
     -0.82823     83.95161     56.44422     27.50739
     -0.81823     82.64543     55.58001     27.06541
     -0.80823     81.38286     54.75380     26.62906
     -0.79823     80.17344     53.96092     26.21251
     -0.78823     79.08627     53.25007     25.83620
     -0.77823     78.13144     52.63859     25.49285
     -0.76823     77.17448     52.03451     25.13998
     -0.75823     76.12812     51.36728     24.76084
     -0.74823     75.13091     50.72996     24.40094
     -0.73823     74.33873     50.23990     24.09882
     -0.72823     73.63665     49.82130     23.81535
     -0.71823     72.78889     49.30046     23.48843
     -0.70823     71.81505     48.68403     23.13102
     -0.69823     70.97492     48.16217     22.81275
     -0.68823     70.37422     47.81921     22.55501
     -0.67823     69.79631     47.49630     22.30001
     -0.66823     69.00460     47.01193     21.99267
     -0.65823     68.07881     46.42275     21.65606
     -0.64823     67.31839     45.95631     21.36207
     -0.63823     66.83530     45.69859     21.13671
     -0.62823     66.38065     45.45896     20.92168
     -0.61823     65.66387     45.01539     20.64848
     -0.60823     64.75871     44.42433     20.33438
     -0.59823     64.03061     43.96317     20.06743
     -0.58823     63.65737     43.76486     19.89251
     -0.57823     63.38765     43.63616     19.75148
     -0.56823     62.87169     43.30971     19.56198
     -0.55823     62.12811     42.79795     19.33016
     -0.54823     61.52701     42.38117     19.14583
     -0.53823     61.32704     42.25630     19.07075
     -0.52823     61.38441     42.31151     19.07289
     -0.51823     61.37387     42.29094     19.08293
     -0.50823     61.20689     42.11720     19.08969
     -0.49823     61.16362     41.99739     19.16623
     -0.48823     61.63655     42.22307     19.41348
     -0.47823     62.78836     42.90042     19.88794
     -0.46823     64.45343     43.87993     20.57350
     -0.45823     66.28202     44.89669     21.38533
     -0.44823     67.79080     45.65907     22.13173
     -0.43823     68.12431     45.70175     22.42256
     -0.42823     65.97939     44.28192     21.69747
     -0.41823     60.32532     40.77218     19.55313
     -0.40823     51.54232     35.36647     16.17585
     -0.39823     41.65746     29.27124     12.38622
     -0.38823     33.14619     24.00442      9.14177
     -0.37823     27.42136     20.45907      6.96229
     -0.36823     24.36386     18.57756      5.78630
     -0.35823     22.95126     17.71298      5.23829
     -0.34823     22.13617     17.18474      4.95143
     -0.33823     21.36370     16.63859      4.72510
     -0.32823     20.60452     16.08630      4.51821
     -0.31823     20.03116     15.67505      4.35611
     -0.30823     19.66402     15.42335      4.24067
     -0.29823     19.31613     15.18361      4.13252
     -0.28823     18.81871     14.82206      3.99665
     -0.27823     18.20377     14.36403      3.83974
     -0.26823     17.63478     13.93979      3.69500
     -0.25823     17.21072     13.62881      3.58191
     -0.24823     16.87853     13.38916      3.48938
     -0.23823     16.51257     13.12031      3.39226
     -0.22823     16.05013     12.77204      3.27809
     -0.21823     15.55226     12.39362      3.15864
     -0.20823     15.12927     12.07379      3.05548
     -0.19823     14.80536     11.83189      2.97347
     -0.18823     14.49173     11.59657      2.89516
     -0.17823     14.11313     11.30765      2.80548
     -0.16823     13.70888     10.99706      2.71181
     -0.15823     13.36011     10.73009      2.63002
     -0.14823     13.06683     10.50662      2.56021
     -0.13823     12.76672     10.27658      2.49014
     -0.12823     12.43759     10.02232      2.41527
     -0.11823     12.10309      9.76293      2.34017
     -0.10823     11.74909      9.48681      2.26228
     -0.09823     11.28063      9.11694      2.16369
     -0.08823     10.54247      8.52735      2.01512
     -0.07823      9.37045      7.58459      1.78585
     -0.06823      7.69568      6.23245      1.46323
     -0.05823      5.66663      4.59114      1.07549
     -0.04823      3.64231      2.95196      0.69035
     -0.03823      2.00055      1.62176      0.37879
     -0.02823      0.92405      0.74922      0.17483
     -0.01823      0.35475      0.28767      0.06708
     -0.00823      0.11223      0.09102      0.02121
      0.00177      0.02907      0.02358      0.00549
      0.01177      0.00614      0.00498      0.00116
      0.02177      0.00105      0.00085      0.00020
      0.03177      0.00015      0.00012      0.00003
      0.04177      0.00002      0.00001      0.00000
      0.05177      0.00000      0.00000      0.00000
      0.06177      0.00000      0.00000      0.00000
      0.07177      0.00000      0.00000      0.00000
      0.08177      0.00000      0.00000      0.00000
      0.09177      0.00000      0.00000      0.00000
      0.10177      0.00000      0.00000      0.00000
      0.11177      0.00000      0.00000      0.00000
      0.12177      0.00000      0.00000      0.00000
      0.13177      0.00000      0.00000      0.00000
      0.14177      0.00000      0.00000      0.00000
      0.15177      0.00000      0.00000      0.00000
      0.16177      0.00000      0.00000      0.00000
      0.17177      0.00000      0.00000      0.00000
      0.18177      0.00000      0.00000      0.00000
      0.19177      0.00000      0.00000      0.00000
      0.20177      0.00000      0.00000      0.00000
      0.21177      0.00000      0.00000      0.00000
      0.22177      0.00000      0.00000      0.00000
      0.23177      0.00000      0.00000      0.00000
      0.24177      0.00000      0.00000      0.00000
      0.25177      0.00000      0.00000      0.00000
      0.26177      0.00000      0.00000      0.00000
      0.27177      0.00000      0.00000      0.00000
      0.28177      0.00000      0.00000      0.00000
      0.29177      0.00000      0.00000      0.00000
      0.30177      0.00000      0.00000      0.00000
      0.31177      0.00000      0.00000      0.00000
      0.32177      0.00000      0.00000      0.00000
      0.33177      0.00000      0.00000      0.00000
      0.34177      0.00000      0.00000      0.00000
      0.35177      0.00000      0.00000      0.00000
      0.36177      0.00000      0.00000      0.00000
      0.37177      0.00000      0.00000      0.00000
      0.38177      0.00000      0.00000      0.00000
      0.39177      0.00000      0.00000      0.00000
      0.40177      0.00000      0.00000      0.00000
      0.41177      0.00000      0.00000      0.00000
      0.42177      0.00000      0.00000      0.00000
      0.43177      0.00000      0.00000      0.00000
      0.44177      0.00000      0.00000      0.00000
      0.45177      0.00000      0.00000      0.00000
      0.46177      0.00000      0.00000      0.00000
      0.47177      0.00000      0.00000      0.00000
      0.48177      0.00000      0.00000      0.00000
      0.49177      0.00000      0.00000      0.00000
      0.50177      0.00000      0.00000      0.00000
      0.51177      0.00000      0.00000      0.00000
      0.52177      0.00000      0.00000      0.00000
      0.53177      0.00000      0.00000      0.00000
      0.54177      0.00000      0.00000      0.00000
      0.55177      0.00000      0.00000      0.00000
      0.56177      0.00000      0.00000      0.00000
      0.57177      0.00000      0.00000      0.00000
      0.58177      0.00000      0.00000      0.00000
      0.59177      0.00000      0.00000      0.00000
      0.60177      0.00000      0.00000      0.00000
      0.61177      0.00000      0.00000      0.00000
      0.62177      0.00000      0.00000      0.00000
      0.63177      0.00000      0.00000      0.00000
      0.64177      0.00000      0.00000      0.00000
      0.65177      0.00000      0.00000      0.00000
      0.66177      0.00000      0.00000      0.00000
      0.67177      0.00000      0.00000      0.00000
      0.68177      0.00000      0.00000      0.00000
      0.69177      0.00000      0.00000      0.00000
      0.70177      0.00000      0.00000      0.00000
      0.71177      0.00000      0.00000      0.00000
      0.72177      0.00000      0.00000      0.00000
      0.73177      0.00000      0.00000      0.00000
      0.74177      0.00000      0.00000      0.00000
      0.75177      0.00000      0.00000      0.00000
      0.76177      0.00000      0.00000      0.00000
      0.77177      0.00000      0.00000      0.00000
      0.78177      0.00000      0.00000      0.00000
      0.79177      0.00000      0.00000      0.00000
      0.80177      0.00000      0.00000      0.00000
      0.81177      0.00000      0.00000      0.00000
      0.82177      0.00000      0.00000      0.00000
      0.83177      0.00000      0.00000      0.00000
      0.84177      0.00000      0.00000      0.00000
      0.85177      0.00000      0.00000      0.00000
      0.86177      0.00000      0.00000      0.00000
      0.87177      0.00000      0.00000      0.00000
      0.88177      0.00000      0.00000      0.00000
      0.89177      0.00000      0.00000      0.00000
      0.90177      0.00000      0.00000      0.00000
      0.91177      0.00000      0.00000      0.00000
      0.92177      0.00000      0.00000      0.00000
      0.93177      0.00000      0.00000      0.00000
      0.94177      0.00000      0.00000      0.00000
      0.95177      0.00000      0.00000      0.00000
      0.96177      0.00000      0.00000      0.00000
      0.97177      0.00000      0.00000      0.00000
      0.98177      0.00000      0.00000      0.00000
      0.99177      0.00000      0.00000      0.00000
      1.00177      0.00000      0.00000      0.00000
      1.01177      0.00000      0.00000      0.00000
      1.02177      0.00000      0.00000      0.00000
      1.03177      0.00000      0.00000      0.00000
      1.04177      0.00000      0.00000      0.00000
      1.05177      0.00000      0.00000      0.00000
      1.06177      0.00000      0.00000      0.00000
      1.07177      0.00000      0.00000      0.00000
      1.08177      0.00000      0.00000      0.00000
      1.09177      0.00000      0.00000      0.00000
      1.10177      0.00000      0.00000      0.00000
      1.11177      0.00000      0.00000      0.00000
      1.12177      0.00000      0.00000      0.00000
      1.13177      0.00000      0.00000      0.00000
      1.14177      0.00000      0.00000      0.00000
      1.15177      0.00000      0.00000      0.00000
      1.16177      0.00000      0.00000      0.00000
      1.17177      0.00000      0.00000      0.00000
      1.18177      0.00000      0.00000      0.00000
